# SAXS profile: number of points = 501, q_min = 0, q_max = 0.5, delta_q = 0.001
#    q    intensity    error
0.00000000 344591200.00000000 72364.14843750
0.00100000 344421696.00000000 113659.16406250
0.00200000 343911104.00000000 170236.00000000
0.00300000 343060800.00000000 247003.78125000
0.00400000 341879744.00000000 307691.78125000
0.00500000 340362880.00000000 367591.93750000
0.00600000 338517920.00000000 355443.81250000
0.00700000 336351424.00000000 403621.71875000
0.00800000 333879872.00000000 540885.43750000
0.00900000 331089440.00000000 645624.43750000
0.01000000 328000608.00000000 649441.25000000
0.01100000 324618592.00000000 642744.87500000
0.01200000 320959328.00000000 938806.06250000
0.01300000 317030112.00000000 998644.87500000
0.01400000 312842752.00000000 915065.06250000
0.01500000 308410720.00000000 1036260.06250000
0.01600000 303739360.00000000 851988.93750000
0.01700000 298848448.00000000 887579.93750000
0.01800000 293750976.00000000 1004628.37500000
0.01900000 288461984.00000000 865386.00000000
0.02000000 283000768.00000000 1604614.50000000
0.02100000 277374432.00000000 1281470.00000000
0.02200000 271595648.00000000 937005.06250000
0.02300000 265676656.00000000 1243366.87500000
0.02400000 259648800.00000000 1265787.87500000
0.02500000 253512320.00000000 1384177.25000000
0.02600000 247291104.00000000 1402140.62500000
0.02700000 241000416.00000000 1315862.25000000
0.02800000 234654064.00000000 1122819.75000000
0.02900000 228264752.00000000 1232629.75000000
0.03000000 221841168.00000000 1134717.62500000
0.03100000 215410256.00000000 1447557.00000000
0.03200000 208978208.00000000 1137886.37500000
0.03300000 202562976.00000000 1136378.25000000
0.03400000 196175632.00000000 1029922.12500000
0.03500000 189826144.00000000 1025061.18750000
0.03600000 183531840.00000000 1120462.00000000
0.03700000 177297344.00000000 1111654.37500000
0.03800000 171138288.00000000 1201390.87500000
0.03900000 165062864.00000000 1188452.62500000
0.04000000 159081200.00000000 1565359.12500000
0.04100000 153204704.00000000 1158227.62500000
0.04200000 147437616.00000000 950972.68750000
0.04300000 141791680.00000000 935825.12500000
0.04400000 136269344.00000000 1103781.75000000
0.04500000 130878480.00000000 1173980.00000000
0.04600000 125625888.00000000 1328493.87500000
0.04700000 120514712.00000000 1128017.75000000
0.04800000 115549592.00000000 1019147.43750000
0.04900000 110732776.00000000 830495.87500000
0.05000000 106067888.00000000 1217129.00000000
0.05100000 101556664.00000000 1425855.62500000
0.05200000 97199264.00000000 772734.18750000
0.05300000 92999176.00000000 753293.37500000
0.05400000 88952984.00000000 807248.37500000
0.05500000 85061864.00000000 1000327.56250000
0.05600000 81324352.00000000 764855.56250000
0.05700000 77739680.00000000 811602.31250000
0.05800000 74304488.00000000 986392.12500000
0.05900000 71018032.00000000 766994.81250000
0.06000000 67876008.00000000 745278.62500000
0.06100000 64874044.00000000 904993.00000000
0.06200000 62011496.00000000 937613.87500000
0.06300000 59283312.00000000 569119.81250000
0.06400000 56685352.00000000 552682.18750000
0.06500001 54213276.00000000 697724.93750000
0.06600000 51861420.00000000 573328.00000000
0.06700000 49626220.00000000 607424.93750000
0.06800000 47503116.00000000 639154.43750000
0.06900001 45486052.00000000 859686.43750000
0.07000000 43571160.00000000 510436.15625000
0.07100000 41752048.00000000 496014.34375000
0.07200000 40025396.00000000 438278.12500000
0.07300001 38385144.00000000 553897.68750000
0.07400000 36826680.00000000 662880.25000000
0.07500000 35345324.00000000 644698.75000000
0.07600001 33936540.00000000 509557.18750000
0.07700001 32595360.00000000 648321.75000000
0.07800000 31317226.00000000 408220.06250000
0.07900000 30098638.00000000 397302.03125000
0.08000001 28935452.00000000 386722.34375000
0.08100000 27823400.00000000 513341.71875000
0.08200000 26758888.00000000 399777.81250000
0.08300000 25738358.00000000 616176.31250000
0.08400001 24759078.00000000 378813.90625000
0.08500000 23817768.00000000 307249.21875000
0.08600000 22911598.00000000 418594.90625000
0.08700000 22037564.00000000 319985.43750000
0.08800001 21193978.00000000 282939.62500000
0.08900000 20378458.00000000 330131.03125000
0.09000000 19589214.00000000 401089.18750000
0.09100001 18824144.00000000 259773.20312500
0.09200001 18082154.00000000 302695.28125000
0.09300000 17361954.00000000 293764.28125000
0.09400000 16661712.00000000 284915.28125000
0.09500001 15981272.00000000 345195.50000000
0.09600000 15319537.00000000 312058.96875000
0.09700000 14676024.00000000 280458.81250000
0.09800000 14050120.00000000 208644.29687500
0.09900001 13441168.00000000 322588.06250000
0.10000000 12849368.00000000 214134.71875000
0.10100000 12274088.00000000 281690.34375000
0.10200001 11715427.00000000 325806.03125000
0.10300001 11173274.00000000 244024.32812500
0.10400000 10647671.00000000 184470.90625000
0.10500000 10138886.00000000 193449.95312500
0.10600001 9646757.00000000 247728.73437500
0.10700001 9171728.00000000 237731.20312500
0.10800000 8713580.00000000 170960.43750000
0.10900000 8272871.00000000 177453.09375000
0.11000001 7849541.50000000 169903.34375000
0.11100001 7443713.00000000 125054.39062500
0.11200000 7055530.00000000 143509.48437500
0.11300001 6685041.50000000 125745.63281250
0.11400001 6332432.00000000 142004.79687500
0.11500000 5997701.50000000 114796.00781250
0.11600000 5680695.50000000 119635.45312500
0.11700001 5381419.50000000 104776.24218750
0.11800001 5099645.50000000 100131.54687500
0.11900000 4835287.50000000 95738.69531250
0.12000000 4588056.50000000 99927.87500000
0.12100001 4357776.50000000 87722.04687500
0.12200001 4143919.25000000 107037.44531250
0.12300000 3946201.75000000 117438.96875000
0.12400001 3763945.75000000 91746.17968750
0.12500000 3596930.00000000 88376.57031250
0.12600000 3444571.50000000 91866.72656250
0.12700000 3306136.25000000 69825.60156250
0.12800001 3181050.00000000 73863.98437500
0.12900001 3068668.50000000 59839.03906250
0.13000001 2968344.25000000 75826.35937500
0.13100001 2879225.50000000 62709.53906250
0.13200000 2800677.75000000 72635.57812500
0.13300000 2731920.75000000 71385.09375000
0.13400000 2672138.75000000 54110.81250000
0.13500001 2620631.75000000 80191.33593750
0.13600001 2576615.50000000 79424.17968750
0.13700001 2539267.25000000 63075.40234375
0.13800001 2507826.50000000 52288.18750000
0.13900001 2481692.75000000 99019.54687500
0.14000000 2459965.75000000 62433.92968750
0.14100000 2442105.50000000 62420.21875000
0.14200000 2427209.00000000 83301.81250000
0.14300001 2414889.25000000 62593.93359375
0.14400001 2404383.75000000 57524.88281250
0.14500001 2395103.75000000 57698.05468750
0.14600001 2386678.00000000 84202.00781250
0.14700000 2378426.00000000 58081.16406250
0.14800000 2369971.25000000 84750.17187500
0.14900000 2360830.50000000 69054.29687500
0.15000001 2350775.50000000 63894.08203125
0.15100001 2339363.50000000 69338.73437500
0.15200001 2326410.25000000 64069.34375000
0.15300001 2311583.75000000 80096.38281250
0.15400001 2294729.00000000 85363.92968750
0.15500000 2275724.75000000 58577.15625000
0.15600000 2254399.50000000 63709.33203125
0.15700001 2230768.00000000 74016.88281250
0.15800001 2204707.75000000 52582.28125000
0.15900001 2176300.00000000 57454.32421875
0.16000001 2145527.50000000 62177.39062500
0.16100001 2112506.75000000 66734.09375000
0.16200000 2077268.50000000 66025.97656250
0.16300000 2039940.00000000 55200.77734375
0.16400000 2000731.25000000 49518.10156250
0.16500001 1959702.62500000 68315.23437500
0.16600001 1917077.25000000 48022.78906250
0.16700001 1872988.62500000 99118.56250000
0.16800001 1827707.75000000 69498.59375000
0.16900001 1781426.00000000 59054.27734375
0.17000000 1734320.62500000 53382.39062500
0.17100000 1686621.12500000 56569.27343750
0.17200001 1638539.25000000 55276.12500000
0.17300001 1590260.37500000 62258.69531250
0.17400001 1542073.00000000 40479.41796875
0.17500001 1494059.25000000 51276.11718750
0.17600001 1446466.50000000 49924.79687500
0.17700000 1399477.25000000 44839.25000000
0.17800000 1353230.62500000 39967.66796875
0.17900001 1307933.50000000 49439.88671875
0.18000001 1263659.50000000 37739.19140625
0.18100001 1220660.75000000 49986.05859375
0.18200001 1178856.00000000 32359.59960938
0.18300001 1138469.12500000 40848.27343750
0.18400002 1099564.50000000 51871.96093750
0.18500000 1062187.12500000 47416.03515625
0.18600000 1026398.31250000 31669.52148438
0.18700001 992224.81250000 36374.96093750
0.18800001 959665.68750000 27206.52343750
0.18900001 928805.68750000 29118.06054688
0.19000001 899495.37500000 30924.65234375
0.19100001 871904.37500000 37666.27343750
0.19200000 845817.56250000 36729.62890625
0.19300000 821309.18750000 26290.10742188
0.19400001 798233.00000000 23348.31640625
0.19500001 776625.25000000 22832.78320312
0.19600001 756319.18750000 29054.00390625
0.19700001 737332.93750000 24088.66796875
0.19800001 719503.31250000 21477.17578125
0.19900002 702844.68750000 25302.41015625
0.20000000 687153.68750000 22789.45312500
0.20100001 672416.43750000 22411.64062500
0.20200001 658533.93750000 24062.83007812
0.20300001 645437.43750000 23700.46289062
0.20400001 632997.18750000 21411.13085938
0.20500001 621171.56250000 19194.20312500
0.20600002 609810.12500000 28401.90820312
0.20700002 598941.31250000 31767.84960938
0.20800000 588406.81250000 23980.51953125
0.20900001 578247.93750000 18214.81054688
0.21000001 568263.12500000 25179.74023438
0.21100001 558496.87500000 19536.22070312
0.21200001 548868.25000000 21043.60937500
0.21300001 539338.43750000 24237.87109375
0.21400002 529900.18750000 22216.06640625
0.21500000 520533.25000000 18551.80468750
0.21600001 511139.46875000 23292.62695312
0.21700001 501778.21875000 21330.59375000
0.21800001 492426.68750000 19411.46093750
0.21900001 483047.43750000 17534.62304688
0.22000001 473687.84375000 15702.75292969
0.22100002 464358.90625000 18555.78320312
0.22200002 455053.71875000 18265.85742188
0.22300000 445775.56250000 14978.05957031
0.22400001 436558.78125000 20627.40234375
0.22500001 427483.87500000 17390.04492188
0.22600001 418487.65625000 17099.40625000
0.22700001 409642.65625000 16811.73632812
0.22800002 400993.62500000 15151.54492188
0.22900002 392536.68750000 14896.76855469
0.23000000 384340.37500000 17312.61328125
0.23100001 376407.40625000 17028.67187500
0.23200001 368788.15625000 14178.06152344
0.23300001 361486.56250000 20301.08593750
0.23400001 354582.90625000 13748.95312500
0.23500001 348014.40625000 12319.71093750
0.23600002 341907.00000000 14585.75390625
0.23700002 336208.59375000 20404.50195312
0.23800001 330989.75000000 16612.37500000
0.23900001 326203.43750000 17614.98632812
0.24000001 321920.90625000 12801.18554688
0.24100001 318135.90625000 13858.00097656
0.24200001 314848.43750000 13771.47167969
0.24300002 312045.09375000 15989.19140625
0.24400002 309727.37500000 17073.72265625
0.24500000 307888.46875000 12497.19335938
0.24600001 306546.93750000 13629.07714844
0.24700001 305659.93750000 12507.60546875
0.24800001 305223.75000000 12540.11816406
0.24900001 305207.90625000 13734.35644531
0.25000000 305604.18750000 12656.59765625
0.25100002 306367.65625000 18529.11718750
0.25200000 307518.15625000 14004.37695312
0.25300002 308974.15625000 17657.87500000
0.25400001 310736.40625000 13074.23437500
0.25500003 312755.09375000 13210.77636719
0.25600001 315011.56250000 18215.54492188
0.25700000 317460.43750000 14742.86230469
0.25800002 320090.37500000 16166.16503906
0.25900000 322837.93750000 13849.74804688
0.26000002 325705.31250000 15301.63671875
0.26100001 328593.78125000 12913.73632812
0.26200002 331573.40625000 15696.68652344
0.26300001 334494.28125000 14570.57128906
0.26400000 337414.25000000 16094.65917969
0.26500002 340275.78125000 21723.20703125
0.26600000 343043.62500000 13738.89746094
0.26700002 345703.50000000 13897.28125000
0.26800001 348238.25000000 14051.41406250
0.26900002 350596.34375000 14199.15332031
0.27000001 352800.03125000 17209.58593750
0.27100003 354785.43750000 17370.29687500
0.27200001 356616.03125000 21905.14062500
0.27300000 358174.71875000 14720.98144531
0.27400002 359485.28125000 20760.27734375
0.27500001 360606.81250000 14929.12207031
0.27600002 361443.96875000 21025.19726562
0.27700001 362047.87500000 15097.39648438
0.27800003 362399.53125000 16683.06445312
0.27900001 362489.62500000 18269.47851562
0.28000000 362354.03125000 18327.86718750
0.28100002 361934.71875000 18371.80664062
0.28200001 361309.68750000 19938.87500000
0.28300002 360436.87500000 23031.91796875
0.28400001 359323.09375000 19969.38085938
0.28500003 358002.40625000 18429.96484375
0.28600001 356463.40625000 16880.32617188
0.28700000 354729.06250000 15324.29589844
0.28800002 352819.84375000 16824.21484375
0.28900000 350712.40625000 24409.58398438
0.29000002 348456.96875000 16731.16210938
0.29100001 346044.78125000 15156.76171875
0.29200003 343509.68750000 16606.97656250
0.29300001 340837.09375000 19540.19140625
0.29400000 338044.68750000 14958.47753906
0.29500002 335166.84375000 17857.69140625
0.29600000 332195.34375000 19239.09375000
0.29700002 329131.37500000 14712.17382812
0.29800001 326027.53125000 16084.56835938
0.29900002 322868.71875000 14529.09375000
0.30000001 319657.00000000 15875.76562500
0.30100003 316421.25000000 18634.04882812
0.30200002 313163.46875000 18503.26367188
0.30300000 309893.59375000 24022.95117188
0.30400002 306632.46875000 21042.65429688
0.30500001 303350.31250000 15316.15722656
0.30600002 300083.53125000 17964.50195312
0.30700001 296872.37500000 13715.50390625
0.30800003 293661.65625000 17694.58398438
0.30900002 290498.53125000 14859.00097656
0.31000000 287363.62500000 24129.92382812
0.31100002 284297.96875000 17296.68945312
0.31200001 281270.96875000 13205.67187500
0.31300002 278315.90625000 13108.67968750
0.31400001 275420.31250000 15616.33203125
0.31500003 272597.25000000 14213.22167969
0.31600001 269859.12500000 12831.80175781
0.31700000 267206.12500000 14020.30566406
0.31800002 264622.31250000 12662.17871094
0.31900001 262169.78125000 13842.56445312
0.32000002 259795.51562500 18763.73242188
0.32100001 257528.96875000 21145.70507812
0.32200003 255384.71875000 18560.08593750
0.32300001 253345.45312500 22162.66210938
0.32400000 251421.98437500 12256.82128906
0.32500002 249636.06250000 14648.64453125
0.32600001 247973.06250000 12163.07910156
0.32700002 246467.85937500 19401.95117188
0.32800001 245103.40625000 13305.43847656
0.32900003 243882.81250000 13279.41992188
0.33000001 242817.85937500 15672.67968750
0.33100003 241910.21875000 16865.98242188
0.33200002 241179.37500000 16865.67382812
0.33300000 240604.00000000 14465.11230469
0.33400002 240207.73437500 15691.57128906
0.33500001 239983.68750000 15723.73144531
0.33600003 239931.00000000 15767.06640625
0.33700001 240070.85937500 12171.59277344
0.33800003 240390.32812500 17113.38867188
0.33900002 240884.23437500 13513.60644531
0.34000000 241559.12500000 17298.04882812
0.34100002 242428.81250000 16167.57812500
0.34200001 243484.68750000 17538.20312500
0.34300002 244704.29687500 12626.74218750
0.34400001 246113.81250000 14010.02929688
0.34500003 247685.50000000 12854.87890625
0.34600002 249446.89062500 18177.19531250
0.34700000 251355.09375000 19681.10351562
0.34800002 253408.17187500 17245.69335938
0.34900001 255630.18750000 13420.58496094
0.35000002 257972.26562500 14940.46484375
0.35100001 260465.42187500 13752.57421875
0.35200003 263057.28125000 19500.43750000
0.35300002 265761.81250000 15523.14843750
0.35400000 268578.81250000 15732.00390625
0.35500002 271468.43750000 15946.05664062
0.35600001 274432.31250000 16165.43554688
0.35700002 277455.81250000 22349.06640625
0.35800001 280529.90625000 18127.84375000
0.35900003 283627.21875000 18379.04492188
0.36000001 286755.87500000 18633.39843750
0.36100003 289867.46875000 18887.76562500
0.36200002 292993.81250000 15953.51367188
0.36300001 296052.09375000 19397.33398438
0.36400002 299080.59375000 19649.59570312
0.36500001 302038.21875000 18240.08789062
0.36600003 304957.84375000 25181.89648438
0.36700001 307747.00000000 20385.16210938
0.36800003 310461.34375000 24057.65234375
0.36900002 313063.25000000 20850.01367188
0.37000000 315497.93750000 21068.95312500
0.37100002 317813.09375000 19507.36914062
0.37200001 319976.78125000 23273.51171875
0.37300003 321961.34375000 23480.64257812
0.37400001 323789.87500000 25498.45312500
0.37500003 325445.43750000 25697.17382812
0.37600002 326882.18750000 25879.26367188
0.37700000 328123.56250000 20465.06640625
0.37800002 329169.68750000 31812.60546875
0.37900001 330013.68750000 20691.85937500
0.38000003 330634.09375000 22674.88671875
0.38100001 331029.00000000 22761.55468750
0.38200003 331222.93750000 24737.38671875
0.38300002 331181.96875000 20983.68945312
0.38400000 330940.56250000 26756.54492188
0.38500002 330467.21875000 30614.48437500
0.38600001 329803.46875000 24888.61914062
0.38700002 328912.93750000 26799.82812500
0.38800001 327825.71875000 26780.08398438
0.38900003 326535.40625000 21012.55468750
0.39000002 325069.09375000 19065.30273438
0.39100003 323424.68750000 24722.58593750
0.39200002 321599.68750000 22749.96289062
0.39300001 319603.00000000 26443.95312500
0.39400002 317465.18750000 20690.79492188
0.39500001 315176.53125000 22465.78320312
0.39600003 312758.15625000 18624.75000000
0.39700001 310227.46875000 22224.69726562
0.39800003 307583.78125000 22090.66796875
0.39900002 304852.65625000 23778.50781250
0.40000001 302029.65625000 21800.50000000
0.40100002 299130.15625000 23448.81445312
0.40200001 296188.09375000 19695.02734375
0.40300003 293185.93750000 21320.48242188
0.40400001 290160.84375000 21152.72656250
0.40500003 287113.84375000 17485.23437500
0.40600002 284076.87500000 24280.05078125
0.40700001 281020.15625000 25797.65039062
0.40800002 277989.93750000 23876.55664062
0.40900001 274978.75000000 32131.26757812
0.41000003 272020.81250000 20124.10156250
0.41100001 269098.00000000 19956.30859375
0.41200003 266224.96875000 19791.16601562
0.41300002 263425.87500000 19630.49609375
0.41400003 260704.54687500 21097.51757812
0.41500002 258063.01562500 17713.44726562
0.41600001 255493.01562500 15981.08886719
0.41700003 253035.82812500 20624.95117188
0.41800001 250682.53125000 20482.01757812
0.41900003 248396.23437500 23473.44531250
0.42000002 246255.59375000 17106.14453125
0.42100003 244217.60937500 17004.87304688
0.42200002 242289.53125000 15373.27148438
0.42300001 240472.70312500 22941.09570312
0.42400002 238769.42187500 16743.70703125
0.42500001 237188.06250000 18187.58203125
0.42600003 235721.37500000 24156.72851562
0.42700002 234373.76562500 18056.15625000
0.42800003 233131.48437500 15002.01171875
0.42900002 232012.07812500 16461.25781250
0.43000001 230999.29687500 20907.74609375
0.43100002 230080.57812500 19381.98828125
0.43200001 229282.75000000 19359.49023438
0.43300003 228572.10937500 19344.05859375
0.43400002 227953.67187500 20823.56835938
0.43500003 227427.04687500 17848.47656250
0.43600002 227005.53125000 14880.21289062
0.43700001 226652.09375000 16380.14746094
0.43800002 226364.40625000 16396.70703125
0.43900001 226158.57812500 17911.75976562
0.44000003 226020.00000000 16446.34570312
0.44100001 225937.62500000 19473.56445312
0.44200003 225916.48437500 15012.15136719
0.44300002 225936.29687500 18056.83007812
0.44400004 226016.43750000 19612.57812500
0.44500002 226109.35937500 22690.07617188
0.44600001 226245.92187500 18203.74804688
0.44700003 226412.68750000 22822.40039062
0.44800001 226605.54687500 15261.88378906
0.44900003 226814.34375000 18371.96289062
0.45000002 227057.25000000 23040.63476562
0.45100003 227279.71875000 18491.47851562
0.45200002 227521.51562500 24736.14062500
0.45300001 227768.09375000 23266.51171875
0.45400003 228013.50000000 23342.88281250
0.45500001 228262.57812500 26542.37304688
0.45600003 228489.98437500 25060.78320312
0.45700002 228719.95312500 20426.98046875
0.45800003 228942.95312500 17338.99609375
0.45900002 229138.51562500 18972.66992188
0.46000001 229343.98437500 20616.87695312
